Freq (hertz)	Ze (ohms)	ZePhase (deg)
   10.00	    6.72	   24.03
   10.14	    6.75	   24.40
   10.29	    6.77	   24.77
   10.44	    6.79	   25.15
   10.59	    6.82	   25.54
   10.74	    6.85	   25.94
   10.90	    6.87	   26.34
   11.05	    6.90	   26.74
   11.21	    6.93	   27.16
   11.37	    6.96	   27.58
   11.54	    7.00	   28.01
   11.70	    7.03	   28.45
   11.87	    7.06	   28.90
   12.04	    7.10	   29.35
   12.22	    7.14	   29.81
   12.39	    7.18	   30.28
   12.57	    7.22	   30.76
   12.75	    7.27	   31.25
   12.94	    7.31	   31.74
   13.12	    7.36	   32.25
   13.31	    7.41	   32.76
   13.50	    7.47	   33.29
   13.70	    7.52	   33.82
   13.89	    7.58	   34.37
   14.10	    7.64	   34.92
   14.30	    7.71	   35.49
   14.50	    7.78	   36.06
   14.71	    7.85	   36.65
   14.92	    7.93	   37.25
   15.14	    8.01	   37.86
   15.36	    8.10	   38.48
   15.58	    8.19	   39.12
   15.80	    8.28	   39.76
   16.03	    8.39	   40.42
   16.26	    8.50	   41.09
   16.50	    8.61	   41.78
   16.73	    8.74	   42.48
   16.98	    8.87	   43.19
   17.22	    9.01	   43.91
   17.47	    9.17	   44.65
   17.72	    9.33	   45.41
   17.97	    9.51	   46.17
   18.23	    9.70	   46.95
   18.50	    9.91	   47.75
   18.76	   10.13	   48.56
   19.03	   10.38	   49.38
   19.31	   10.65	   50.21
   19.59	   10.94	   51.05
   19.87	   11.27	   51.91
   20.15	   11.62	   52.77
   20.44	   12.02	   53.63
   20.74	   12.47	   54.51
   21.04	   12.97	   55.37
   21.34	   13.54	   56.24
   21.65	   14.18	   57.09
   21.96	   14.92	   57.91
   22.28	   15.78	   58.70
   22.60	   16.79	   59.44
   22.92	   17.98	   60.09
   23.25	   19.41	   60.63
   23.59	   21.16	   61.01
   23.93	   23.34	   61.14
   24.27	   26.13	   60.90
   24.62	   29.80	   60.09
   24.98	   34.79	   58.36
   25.34	   41.85	   55.08
   25.70	   52.20	   48.96
   26.07	   67.20	   37.45
   26.45	   83.83	   16.61
   26.83	   85.21	  -12.04
   27.21	   68.01	  -35.29
   27.61	   50.87	  -48.39
   28.00	   39.02	  -55.06
   28.41	   31.08	  -58.28
   28.82	   25.56	  -59.54
   29.23	   21.58	  -59.62
   29.65	   18.60	  -58.91
   30.08	   16.29	  -57.64
   30.51	   14.48	  -55.96
   30.95	   13.02	  -53.96
   31.40	   11.82	  -51.71
   31.85	   10.84	  -49.24
   32.31	   10.01	  -46.59
   32.77	    9.32	  -43.79
   33.25	    8.74	  -40.87
   33.72	    8.24	  -37.84
   34.21	    7.83	  -34.73
   34.70	    7.47	  -31.55
   35.20	    7.18	  -28.33
   35.71	    6.93	  -25.06
   36.22	    6.72	  -21.78
   36.75	    6.55	  -18.50
   37.28	    6.41	  -15.22
   37.81	    6.31	  -11.96
   38.36	    6.23	   -8.73
   38.91	    6.17	   -5.54
   39.47	    6.14	   -2.39
   40.04	    6.13	    0.71
   40.62	    6.14	    3.75
   41.20	    6.17	    6.73
   41.79	    6.22	    9.65
   42.40	    6.29	   12.50
   43.01	    6.38	   15.29
   43.63	    6.48	   18.01
   44.26	    6.60	   20.67
   44.89	    6.74	   23.26
   45.54	    6.90	   25.78
   46.20	    7.08	   28.24
   46.86	    7.28	   30.63
   47.54	    7.51	   32.96
   48.22	    7.76	   35.22
   48.91	    8.04	   37.42
   49.62	    8.35	   39.56
   50.33	    8.69	   41.63
   51.06	    9.08	   43.63
   51.79	    9.50	   45.56
   52.54	    9.98	   47.42
   53.30	   10.51	   49.21
   54.07	   11.11	   50.91
   54.84	   11.79	   52.52
   55.63	   12.57	   54.04
   56.44	   13.45	   55.44
   57.25	   14.47	   56.72
   58.07	   15.66	   57.84
   58.91	   17.06	   58.78
   59.76	   18.72	   59.50
   60.62	   20.71	   59.94
   61.49	   23.16	   60.01
   62.38	   26.20	   59.59
   63.28	   30.07	   58.49
   64.19	   35.09	   56.40
   65.11	   41.73	   52.82
   66.05	   50.57	   46.92
   67.00	   61.91	   37.38
   67.97	   74.07	   22.66
   68.95	   80.76	    2.99
   69.94	   76.21	  -17.02
   70.95	   64.99	  -32.42
   71.97	   53.84	  -42.56
   73.01	   44.97	  -48.94
   74.06	   38.26	  -52.93
   75.12	   33.18	  -55.40
   76.21	   29.26	  -56.89
   77.30	   26.17	  -57.72
   78.42	   23.69	  -58.09
   79.55	   21.66	  -58.13
   80.69	   19.98	  -57.93
   81.85	   18.56	  -57.55
   83.03	   17.35	  -57.03
   84.23	   16.31	  -56.40
   85.44	   15.41	  -55.70
   86.67	   14.62	  -54.93
   87.92	   13.92	  -54.12
   89.19	   13.30	  -53.26
   90.47	   12.75	  -52.38
   91.78	   12.25	  -51.47
   93.10	   11.80	  -50.55
   94.44	   11.40	  -49.61
   95.80	   11.03	  -48.67
   97.18	   10.69	  -47.71
   98.58	   10.38	  -46.76
  100.00	   10.10	  -45.80
  101.44	    9.84	  -44.84
  102.90	    9.60	  -43.88
  104.38	    9.38	  -42.93
  105.89	    9.17	  -41.97
  107.41	    8.98	  -41.02
  108.96	    8.80	  -40.08
  110.53	    8.64	  -39.14
  112.12	    8.48	  -38.21
  113.74	    8.34	  -37.28
  115.38	    8.20	  -36.36
  117.04	    8.08	  -35.45
  118.72	    7.96	  -34.54
  120.43	    7.85	  -33.67
  122.17	    7.73	  -32.78
  123.93	    7.63	  -31.82
  125.71	    7.54	  -30.92
  127.52	    7.46	  -30.04
  129.36	    7.37	  -29.17
  131.22	    7.30	  -28.29
  133.11	    7.22	  -27.43
  135.03	    7.15	  -26.57
  136.98	    7.08	  -25.71
  138.95	    7.02	  -24.85
  140.95	    6.96	  -24.00
  142.98	    6.90	  -23.15
  145.04	    6.85	  -22.31
  147.13	    6.80	  -21.46
  149.25	    6.75	  -20.62
  151.40	    6.71	  -19.77
  153.58	    6.66	  -18.93
  155.79	    6.62	  -18.08
  158.04	    6.58	  -17.22
  160.31	    6.54	  -16.36
  162.62	    6.51	  -15.50
  164.96	    6.48	  -14.62
  167.34	    6.44	  -13.73
  169.75	    6.41	  -12.82
  172.20	    6.39	  -11.89
  174.68	    6.36	  -10.93
  177.19	    6.34	   -9.94
  179.75	    6.31	   -8.89
  182.33	    6.29	   -7.78
  184.96	    6.28	   -6.57
  187.63	    6.27	   -5.24
  190.33	    6.27	   -3.73
  193.07	    6.28	   -1.96
  195.85	    6.32	    0.23
  198.67	    6.43	    3.04
  201.53	    6.72	    6.73
  204.44	    7.52	   10.65
  207.38	    9.45	    7.25
  210.37	    9.65	   -9.97
  213.40	    8.04	  -15.18
  216.47	    7.22	  -13.70
  219.59	    6.84	  -11.48
  222.75	    6.63	   -9.50
  225.96	    6.51	   -7.81
  229.22	    6.43	   -6.34
  232.52	    6.38	   -5.03
  235.87	    6.34	   -3.83
  239.27	    6.32	   -2.72
  242.71	    6.30	   -1.66
  246.21	    6.28	   -0.65
  249.76	    6.27	    0.35
  253.35	    6.27	    1.33
  257.00	    6.27	    2.32
  260.70	    6.27	    3.33
  264.46	    6.28	    4.39
  268.27	    6.31	    5.52
  272.13	    6.35	    6.77
  276.05	    6.42	    8.22
  280.03	    6.57	    9.90
  284.06	    6.92	   11.43
  288.16	    7.63	    9.21
  292.31	    7.44	    1.39
  296.52	    6.75	    0.99
  300.79	    6.47	    3.00
  305.12	    6.37	    4.77
  309.52	    6.33	    6.21
  313.97	    6.31	    7.41
  318.50	    6.31	    8.46
  323.08	    6.31	    9.41
  327.74	    6.31	   10.29
  332.46	    6.32	   11.12
  337.25	    6.33	   11.92
  342.11	    6.35	   12.68
  347.03	    6.36	   13.43
  352.03	    6.38	   14.16
  357.10	    6.39	   14.87
  362.25	    6.41	   15.59
  367.47	    6.43	   16.32
  372.76	    6.45	   17.02
  378.13	    6.48	   17.68
  383.58	    6.50	   18.34
  389.10	    6.52	   19.01
  394.71	    6.55	   19.68
  400.39	    6.58	   20.35
  406.16	    6.60	   21.03
  412.01	    6.64	   21.72
  417.94	    6.67	   22.41
  423.96	    6.71	   23.13
  430.07	    6.75	   23.87
  436.27	    6.81	   24.63
  442.55	    6.90	   25.36
  448.93	    7.04	   25.71
  455.39	    7.14	   24.89
  461.95	    7.04	   24.51
  468.61	    6.97	   25.29
  475.36	    6.96	   26.20
  482.20	    6.98	   27.04
  489.15	    7.01	   27.82
  496.19	    7.05	   28.55
  503.34	    7.10	   29.25
  510.59	    7.15	   29.94
  517.95	    7.21	   30.58
  525.41	    7.29	   31.13
  532.98	    7.38	   31.29
  540.65	    7.38	   31.09
  548.44	    7.34	   31.70
  556.34	    7.35	   32.58
  564.36	    7.39	   33.38
  572.48	    7.44	   34.09
  580.73	    7.49	   34.76
  589.10	    7.54	   35.40
  597.58	    7.60	   36.02
  606.19	    7.65	   36.64
  614.92	    7.71	   37.26
  623.78	    7.78	   37.84
  632.76	    7.84	   38.40
  641.88	    7.90	   38.96
  651.13	    7.96	   39.54
  660.50	    8.03	   40.11
  670.02	    8.10	   40.68
  679.67	    8.18	   41.24
  689.46	    8.27	   41.76
  699.39	    8.36	   42.10
  709.47	    8.42	   42.27
  719.69	    8.45	   42.74
  730.05	    8.50	   43.37
  740.57	    8.57	   43.98
  751.24	    8.64	   44.55
  762.06	    8.72	   45.09
  773.03	    8.81	   45.57
  784.17	    8.89	   45.96
  795.47	    8.95	   46.40
  806.92	    9.01	   47.00
  818.55	    9.09	   47.59
  830.34	    9.18	   48.15
  842.30	    9.27	   48.68
  854.43	    9.36	   49.21
  866.74	    9.46	   49.72
  879.22	    9.56	   50.20
  891.89	    9.66	   50.67
  904.74	    9.76	   51.15
  917.77	    9.86	   51.63
  930.99	    9.97	   52.08
  944.40	   10.09	   52.49
  958.00	   10.19	   52.83
  971.80	   10.28	   53.23
  985.80	   10.37	   53.72
 1000.00	   10.48	   54.21
 1014.40	   10.60	   54.66
 1029.02	   10.71	   55.09
 1043.84	   10.82	   55.52
 1058.88	   10.93	   55.99
 1074.13	   11.05	   56.47
 1089.60	   11.18	   56.92
 1105.30	   11.31	   57.36
 1121.22	   11.44	   57.78
 1137.37	   11.58	   58.18
 1153.75	   11.71	   58.58
 1170.37	   11.85	   58.98
 1187.23	   11.99	   59.36
 1204.33	   12.13	   59.72
 1221.68	   12.27	   60.07
 1239.28	   12.40	   60.47
 1257.13	   12.55	   60.87
 1275.23	   12.69	   61.26
 1293.60	   12.84	   61.65
 1312.24	   13.00	   62.05
 1331.14	   13.16	   62.44
 1350.31	   13.32	   62.81
 1369.76	   13.49	   63.18
 1389.50	   13.66	   63.52
 1409.51	   13.83	   63.86
 1429.81	   14.00	   64.19
 1450.41	   14.17	   64.52
 1471.30	   14.35	   64.85
 1492.50	   14.52	   65.18
 1513.99	   14.70	   65.53
 1535.80	   14.88	   65.87
 1557.93	   15.07	   66.21
 1580.37	   15.27	   66.54
 1603.13	   15.47	   66.86
 1626.22	   15.67	   67.17
 1649.65	   15.87	   67.47
 1673.41	   16.08	   67.76
 1697.52	   16.28	   68.06
 1721.97	   16.49	   68.35
 1746.77	   16.70	   68.64
 1771.93	   16.92	   68.94
 1797.46	   17.14	   69.24
 1823.35	   17.37	   69.53
 1849.61	   17.60	   69.82
 1876.26	   17.84	   70.09
 1903.28	   18.07	   70.35
 1930.70	   18.31	   70.61
 1958.51	   18.55	   70.87
 1986.72	   18.80	   71.13
 2015.34	   19.05	   71.40
 2044.37	   19.30	   71.67
 2073.82	   19.56	   71.92
 2103.69	   19.83	   72.17
 2133.99	   20.10	   72.41
 2164.73	   20.37	   72.64
 2195.91	   20.64	   72.88
 2227.54	   20.92	   73.12
 2259.63	   21.20	   73.35
 2292.18	   21.49	   73.59
 2325.20	   21.78	   73.82
 2358.69	   22.08	   74.04
 2392.67	   22.38	   74.26
 2427.13	   22.69	   74.47
 2462.09	   23.00	   74.69
 2497.56	   23.31	   74.90
 2533.53	   23.63	   75.12
 2570.03	   23.96	   75.33
 2607.05	   24.29	   75.53
 2644.60	   24.62	   75.73
 2682.70	   24.96	   75.92
 2721.34	   25.30	   76.12
 2760.54	   25.65	   76.32
 2800.30	   26.01	   76.51
 2840.64	   26.37	   76.70
 2881.56	   26.74	   76.88
 2923.07	   27.11	   77.06
 2965.17	   27.48	   77.24
 3007.88	   27.86	   77.43
 3051.21	   28.25	   77.61
 3095.16	   28.65	   77.78
 3139.75	   29.05	   77.94
 3184.97	   29.45	   78.11
 3230.85	   29.86	   78.28
 3277.39	   30.28	   78.45
 3324.60	   30.71	   78.61
 3372.49	   31.14	   78.77
 3421.07	   31.58	   78.92
 3470.35	   32.02	   79.08
 3520.33	   32.47	   79.24
 3571.04	   32.93	   79.39
 3622.48	   33.39	   79.53
 3674.66	   33.86	   79.68
 3727.59	   34.33	   79.83
 3781.29	   34.82	   79.97
 3835.76	   35.31	   80.11
 3891.01	   35.81	   80.25
 3947.06	   36.31	   80.39
 4003.91	   36.83	   80.52
 4061.59	   37.35	   80.66
 4120.09	   37.88	   80.79
 4179.44	   38.41	   80.92
 4239.64	   38.95	   81.05
 4300.71	   39.51	   81.17
 4362.66	   40.07	   81.30
 4425.50	   40.63	   81.42
 4489.25	   41.21	   81.54
 4553.92	   41.80	   81.66
 4619.51	   42.39	   81.78
 4686.06	   42.99	   81.89
 4753.56	   43.60	   82.01
 4822.03	   44.22	   82.12
 4891.49	   44.85	   82.23
 4961.95	   45.49	   82.34
 5033.42	   46.13	   82.45
 5105.93	   46.79	   82.55
 5179.47	   47.46	   82.66
 5254.08	   48.13	   82.77
 5329.77	   48.82	   82.87
 5406.54	   49.51	   82.97
 5484.42	   50.22	   83.07
 5563.42	   50.94	   83.16
 5643.56	   51.66	   83.26
 5724.85	   52.40	   83.36
 5807.31	   53.15	   83.45
 5890.96	   53.91	   83.54
 5975.82	   54.68	   83.64
 6061.90	   55.46	   83.72
 6149.22	   56.25	   83.81
 6237.79	   57.05	   83.90
 6327.65	   57.87	   83.99
 6418.79	   58.70	   84.07
 6511.25	   59.54	   84.16
 6605.04	   60.39	   84.24
 6700.19	   61.25	   84.32
 6796.70	   62.13	   84.40
 6894.60	   63.02	   84.48
 6993.92	   63.92	   84.56
 7094.66	   64.83	   84.64
 7196.86	   65.76	   84.71
 7300.52	   66.70	   84.79
 7405.68	   67.66	   84.86
 7512.36	   68.63	   84.93
 7620.57	   69.61	   85.00
 7730.34	   70.61	   85.08
 7841.69	   71.62	   85.15
 7954.65	   72.65	   85.21
 8069.23	   73.69	   85.28
 8185.47	   74.75	   85.35
 8303.38	   75.82	   85.41
 8422.98	   76.90	   85.48
 8544.31	   78.01	   85.54
 8667.39	   79.13	   85.61
 8792.24	   80.26	   85.67
 8918.88	   81.41	   85.73
 9047.36	   82.58	   85.79
 9177.68	   83.77	   85.85
 9309.88	   84.97	   85.91
 9443.98	   86.19	   85.97
 9580.02	   87.43	   86.02
 9718.02	   88.68	   86.08
 9858.00	   89.95	   86.14
10000.00	   91.25	   86.19
10144.05	   92.56	   86.25
10290.17	   93.89	   86.30
10438.39	   95.23	   86.35
10588.75	   96.60	   86.40
10741.28	   97.99	   86.45
10896.00	   99.40	   86.50
11052.95	  100.83	   86.55
11212.16	  102.27	   86.60
11373.67	  103.74	   86.65
11537.50	  105.23	   86.70
11703.69	  106.75	   86.75
11872.28	  108.28	   86.79
12043.30	  109.84	   86.84
12216.77	  111.42	   86.88
12392.75	  113.02	   86.93
12571.26	  114.64	   86.97
12752.35	  116.29	   87.01
12936.04	  117.96	   87.06
13122.37	  119.66	   87.10
13311.40	  121.38	   87.14
13503.14	  123.13	   87.18
13697.65	  124.90	   87.22
13894.95	  126.69	   87.26
14095.11	  128.51	   87.30
14298.14	  130.36	   87.34
14504.10	  132.24	   87.37
14713.02	  134.14	   87.41
14924.96	  136.07	   87.45
15139.94	  138.03	   87.48
15358.03	  140.01	   87.52
15579.25	  142.03	   87.55
15803.66	  144.07	   87.59
16031.31	  146.14	   87.62
16262.23	  148.24	   87.66
16496.48	  150.38	   87.69
16734.10	  152.54	   87.72
16975.15	  154.74	   87.76
17219.67	  156.96	   87.79
17467.71	  159.22	   87.82
17719.33	  161.51	   87.85
17974.56	  163.84	   87.88
18233.48	  166.19	   87.91
18496.12	  168.59	   87.94
18762.55	  171.01	   87.97
19032.82	  173.47	   88.00
19306.98	  175.97	   88.03
19585.09	  178.50	   88.05
19867.20	  181.07	   88.08
20000.00	  182.28	   88.09
